#  E (eV)   dos(E)     Int dos(E) EFermi =   -0.171 eV
  -9.000 -0.2567E-80 -0.2567E-82
  -8.990 -0.2572E-80 -0.5140E-82
  -8.980 -0.2577E-80 -0.7717E-82
  -8.970 -0.2582E-80 -0.1030E-81
  -8.960 -0.2587E-80 -0.1289E-81
  -8.950 -0.2592E-80 -0.1548E-81
  -8.940 -0.2597E-80 -0.1808E-81
  -8.930 -0.2602E-80 -0.2068E-81
  -8.920 -0.2607E-80 -0.2329E-81
  -8.910 -0.2613E-80 -0.2590E-81
  -8.900 -0.2618E-80 -0.2852E-81
  -8.890 -0.2623E-80 -0.3114E-81
  -8.880 -0.2628E-80 -0.3377E-81
  -8.870 -0.2633E-80 -0.3640E-81
  -8.860 -0.2638E-80 -0.3904E-81
  -8.850 -0.2643E-80 -0.4168E-81
  -8.840 -0.2648E-80 -0.4433E-81
  -8.830 -0.2653E-80 -0.4698E-81
  -8.820 -0.2658E-80 -0.4964E-81
  -8.810 -0.2663E-80 -0.5230E-81
  -8.800 -0.2668E-80 -0.5497E-81
  -8.790 -0.2673E-80 -0.5764E-81
  -8.780 -0.2678E-80 -0.6032E-81
  -8.770 -0.2683E-80 -0.6300E-81
  -8.760 -0.2688E-80 -0.6569E-81
  -8.750 -0.2693E-80 -0.6838E-81
  -8.740 -0.2698E-80 -0.7108E-81
  -8.730 -0.2703E-80 -0.7378E-81
  -8.720 -0.2708E-80 -0.7649E-81
  -8.710 -0.2713E-80 -0.7920E-81
  -8.700 -0.2718E-80 -0.8192E-81
  -8.690 -0.2723E-80 -0.8464E-81
  -8.680 -0.2728E-80 -0.8737E-81
  -8.670 -0.2733E-80 -0.9010E-81
  -8.660 -0.2738E-80 -0.9284E-81
  -8.650 -0.2743E-80 -0.9558E-81
  -8.640 -0.2748E-80 -0.9833E-81
  -8.630 -0.2753E-80 -0.1011E-80
  -8.620 -0.2758E-80 -0.1038E-80
  -8.610 -0.2763E-80 -0.1066E-80
  -8.600 -0.2768E-80 -0.1094E-80
  -8.590 -0.2773E-80 -0.1121E-80
  -8.580 -0.2778E-80 -0.1149E-80
  -8.570 -0.2783E-80 -0.1177E-80
  -8.560 -0.2788E-80 -0.1205E-80
  -8.550 -0.2793E-80 -0.1233E-80
  -8.540 -0.2798E-80 -0.1261E-80
  -8.530 -0.2803E-80 -0.1289E-80
  -8.520 -0.2808E-80 -0.1317E-80
  -8.510 -0.2813E-80 -0.1345E-80
  -8.500 -0.2818E-80 -0.1373E-80
  -8.490 -0.2823E-80 -0.1401E-80
  -8.480 -0.2828E-80 -0.1430E-80
  -8.470 -0.2833E-80 -0.1458E-80
  -8.460 -0.2838E-80 -0.1486E-80
  -8.450 -0.2843E-80 -0.1515E-80
  -8.440 -0.2848E-80 -0.1543E-80
  -8.430 -0.2853E-80 -0.1572E-80
  -8.420 -0.2858E-80 -0.1601E-80
  -8.410 -0.2863E-80 -0.1629E-80
  -8.400 -0.2868E-80 -0.1658E-80
  -8.390 -0.2873E-80 -0.1687E-80
  -8.380 -0.2878E-80 -0.1715E-80
  -8.370 -0.2883E-80 -0.1744E-80
  -8.360 -0.2888E-80 -0.1773E-80
  -8.350 -0.2893E-80 -0.1802E-80
  -8.340 -0.2898E-80 -0.1831E-80
  -8.330 -0.2903E-80 -0.1860E-80
  -8.320 -0.2908E-80 -0.1889E-80
  -8.310 -0.2913E-80 -0.1918E-80
  -8.300 -0.2918E-80 -0.1947E-80
  -8.290 -0.2923E-80 -0.1977E-80
  -8.280 -0.2928E-80 -0.2006E-80
  -8.270 -0.2933E-80 -0.2035E-80
  -8.260 -0.2938E-80 -0.2065E-80
  -8.250 -0.2943E-80 -0.2094E-80
  -8.240 -0.2948E-80 -0.2124E-80
  -8.230 -0.2953E-80 -0.2153E-80
  -8.220 -0.2958E-80 -0.2183E-80
  -8.210 -0.2963E-80 -0.2212E-80
  -8.200 -0.2968E-80 -0.2242E-80
  -8.190 -0.2973E-80 -0.2272E-80
  -8.180 -0.2978E-80 -0.2301E-80
  -8.170 -0.2983E-80 -0.2331E-80
  -8.160 -0.2988E-80 -0.2361E-80
  -8.150 -0.2993E-80 -0.2391E-80
  -8.140 -0.2998E-80 -0.2421E-80
  -8.130 -0.3003E-80 -0.2451E-80
  -8.120 -0.3008E-80 -0.2481E-80
  -8.110 -0.3013E-80 -0.2511E-80
  -8.100 -0.3018E-80 -0.2542E-80
  -8.090 -0.3023E-80 -0.2572E-80
  -8.080 -0.3028E-80 -0.2602E-80
  -8.070 -0.3033E-80 -0.2632E-80
  -8.060 -0.3038E-80 -0.2663E-80
  -8.050 -0.3043E-80 -0.2693E-80
  -8.040 -0.3048E-80 -0.2724E-80
  -8.030 -0.3053E-80 -0.2754E-80
  -8.020 -0.3058E-80 -0.2785E-80
  -8.010 -0.3063E-80 -0.2815E-80
  -8.000 -0.3068E-80 -0.2846E-80
  -7.990 -0.3073E-80 -0.2877E-80
  -7.980 -0.3078E-80 -0.2908E-80
  -7.970 -0.3083E-80 -0.2938E-80
  -7.960 -0.3089E-80 -0.2969E-80
  -7.950 -0.3094E-80 -0.3000E-80
  -7.940 -0.3099E-80 -0.3031E-80
  -7.930 -0.3104E-80 -0.3062E-80
  -7.920 -0.3109E-80 -0.3093E-80
  -7.910 -0.3114E-80 -0.3125E-80
  -7.900 -0.3119E-80 -0.3156E-80
  -7.890 -0.3124E-80 -0.3187E-80
  -7.880  0.5757E-76  0.5725E-78
  -7.870  0.1114E-67  0.1114E-69
  -7.860  0.7297E-60  0.7297E-62
  -7.850  0.1617E-52  0.1617E-54
  -7.840  0.1211E-45  0.1211E-47
  -7.830  0.3067E-39  0.3067E-41
  -7.820  0.2623E-33  0.2623E-35
  -7.810  0.7573E-28  0.7573E-30
  -7.800  0.7371E-23  0.7371E-25
  -7.790  0.2416E-18  0.2416E-20
  -7.780  0.2662E-14  0.2662E-16
  -7.770  0.9839E-11  0.9842E-13
  -7.760  0.1217E-07  0.1218E-09
  -7.750  0.5013E-05  0.5025E-07
  -7.740  0.6850E-03  0.6900E-05
  -7.730  0.3088E-01  0.3157E-03
  -7.720  0.4583E+00  0.4899E-02
  -7.710  0.2272E+01  0.2762E-01
  -7.700  0.3958E+01  0.6720E-01
  -7.690  0.2478E+01  0.9198E-01
  -7.680  0.5515E+00  0.9749E-01
  -7.670  0.1206E+01  0.1096E+00
  -7.660  0.1726E+01  0.1268E+00
  -7.650  0.7749E+00  0.1346E+00
  -7.640  0.9670E-01  0.1355E+00
  -7.630  0.8294E+00  0.1438E+00
  -7.620  0.1109E+01  0.1549E+00
  -7.610  0.5387E+00  0.1603E+00
  -7.600  0.1033E+01  0.1706E+00
  -7.590  0.7249E+00  0.1779E+00
  -7.580  0.7767E-01  0.1787E+00
  -7.570  0.7598E+00  0.1863E+00
  -7.560  0.1136E+01  0.1976E+00
  -7.550  0.2022E+00  0.1996E+00
  -7.540 -0.1115E+00  0.1985E+00
  -7.530  0.3356E+00  0.2019E+00
  -7.520  0.1124E+01  0.2131E+00
  -7.510  0.8643E+00  0.2218E+00
  -7.500  0.2396E+00  0.2242E+00
  -7.490  0.9494E+00  0.2337E+00
  -7.480  0.9428E+00  0.2431E+00
  -7.470  0.4987E-02  0.2431E+00
  -7.460 -0.1196E+00  0.2419E+00
  -7.450 -0.1649E-01  0.2418E+00
  -7.440  0.1914E-01  0.2420E+00
  -7.430  0.2548E+00  0.2445E+00
  -7.420  0.1009E+01  0.2546E+00
  -7.410  0.1200E+01  0.2666E+00
  -7.400  0.9179E+00  0.2758E+00
  -7.390  0.1007E+01  0.2859E+00
  -7.380  0.1667E+00  0.2875E+00
  -7.370 -0.1473E+00  0.2860E+00
  -7.360 -0.3184E-01  0.2857E+00
  -7.350 -0.1573E-02  0.2857E+00
  -7.340 -0.2108E-04  0.2857E+00
  -7.330  0.2710E-03  0.2857E+00
  -7.320  0.1379E-01  0.2859E+00
  -7.310  0.2448E+00  0.2883E+00
  -7.300  0.1632E+01  0.3046E+00
  -7.290  0.4611E+01  0.3507E+00
  -7.280  0.6039E+01  0.4111E+00
  -7.270  0.4072E+01  0.4518E+00
  -7.260  0.2266E+01  0.4745E+00
  -7.250  0.2101E+01  0.4955E+00
  -7.240  0.1911E+01  0.5146E+00
  -7.230  0.1398E+01  0.5286E+00
  -7.220  0.1798E+01  0.5466E+00
  -7.210  0.1765E+01  0.5642E+00
  -7.200  0.1037E+01  0.5746E+00
  -7.190  0.8608E+00  0.5832E+00
  -7.180  0.2695E+01  0.6102E+00
  -7.170  0.2942E+01  0.6396E+00
  -7.160  0.1733E+01  0.6569E+00
  -7.150  0.1973E+01  0.6766E+00
  -7.140  0.1720E+01  0.6938E+00
  -7.130  0.1146E+01  0.7053E+00
  -7.120  0.8439E+00  0.7137E+00
  -7.110  0.1040E+01  0.7241E+00
  -7.100  0.3837E+00  0.7280E+00
  -7.090  0.4910E+00  0.7329E+00
  -7.080  0.2032E+01  0.7532E+00
  -7.070  0.1830E+01  0.7715E+00
  -7.060  0.1757E+00  0.7733E+00
  -7.050  0.6557E+00  0.7798E+00
  -7.040  0.2054E+01  0.8004E+00
  -7.030  0.1819E+01  0.8186E+00
  -7.020  0.1199E+01  0.8305E+00
  -7.010  0.1396E+01  0.8445E+00
  -7.000  0.1768E+01  0.8622E+00
  -6.990  0.1627E+01  0.8785E+00
  -6.980  0.3473E+00  0.8819E+00
  -6.970 -0.1561E+00  0.8804E+00
  -6.960  0.5288E+00  0.8857E+00
  -6.950  0.2089E+01  0.9066E+00
  -6.940  0.1906E+01  0.9256E+00
  -6.930  0.7673E-01  0.9264E+00
  -6.920  0.2621E+00  0.9290E+00
  -6.910  0.1563E+01  0.9446E+00
  -6.900  0.1865E+01  0.9633E+00
  -6.890  0.7580E+00  0.9709E+00
  -6.880  0.4711E+00  0.9756E+00
  -6.870  0.1179E+01  0.9874E+00
  -6.860  0.9577E+00  0.9969E+00
  -6.850  0.1203E+01  0.1009E+01
  -6.840  0.1359E+01  0.1023E+01
  -6.830  0.1052E+01  0.1033E+01
  -6.820  0.2576E+00  0.1036E+01
  -6.810  0.4312E+00  0.1040E+01
  -6.800  0.1718E+01  0.1057E+01
  -6.790  0.2068E+01  0.1078E+01
  -6.780  0.1463E+01  0.1092E+01
  -6.770  0.8778E+00  0.1101E+01
  -6.760  0.4472E+00  0.1106E+01
  -6.750  0.1050E+01  0.1116E+01
  -6.740  0.6679E+00  0.1123E+01
  -6.730 -0.8847E-01  0.1122E+01
  -6.720  0.2068E+00  0.1124E+01
  -6.710  0.1366E+01  0.1138E+01
  -6.700  0.2160E+01  0.1159E+01
  -6.690  0.8796E+00  0.1168E+01
  -6.680 -0.1712E+00  0.1166E+01
  -6.670  0.2381E+00  0.1169E+01
  -6.660  0.1885E+01  0.1188E+01
  -6.650  0.3312E+01  0.1221E+01
  -6.640  0.1629E+01  0.1237E+01
  -6.630  0.4746E+00  0.1242E+01
  -6.620  0.1011E+01  0.1252E+01
  -6.610  0.5198E+00  0.1257E+01
  -6.600  0.7905E+00  0.1265E+01
  -6.590  0.1031E+01  0.1275E+01
  -6.580  0.1094E+00  0.1276E+01
  -6.570  0.8393E-02  0.1277E+01
  -6.560  0.1194E+01  0.1288E+01
  -6.550  0.3246E+01  0.1321E+01
  -6.540  0.2365E+01  0.1345E+01
  -6.530 -0.4117E-01  0.1344E+01
  -6.520 -0.2076E+00  0.1342E+01
  -6.510  0.8688E+00  0.1351E+01
  -6.500  0.3033E+01  0.1381E+01
  -6.490  0.3010E+01  0.1411E+01
  -6.480  0.1769E+01  0.1429E+01
  -6.470  0.4059E+01  0.1469E+01
  -6.460  0.4153E+01  0.1511E+01
  -6.450  0.3004E+01  0.1541E+01
  -6.440  0.2472E+01  0.1566E+01
  -6.430  0.1280E+01  0.1579E+01
  -6.420  0.1921E+01  0.1598E+01
  -6.410  0.1235E+01  0.1610E+01
  -6.400  0.9430E+00  0.1620E+01
  -6.390  0.2275E+01  0.1642E+01
  -6.380  0.2439E+01  0.1667E+01
  -6.370  0.7941E+00  0.1675E+01
  -6.360  0.3069E-01  0.1675E+01
  -6.350  0.1097E+01  0.1686E+01
  -6.340  0.2136E+01  0.1707E+01
  -6.330  0.2433E+01  0.1732E+01
  -6.320  0.9614E+00  0.1741E+01
  -6.310  0.2031E+00  0.1743E+01
  -6.300  0.1185E+01  0.1755E+01
  -6.290  0.1438E+01  0.1769E+01
  -6.280  0.1981E+01  0.1789E+01
  -6.270  0.2708E+01  0.1816E+01
  -6.260  0.2158E+01  0.1838E+01
  -6.250  0.9986E+00  0.1848E+01
  -6.240  0.3557E-01  0.1848E+01
  -6.230 -0.1183E+00  0.1847E+01
  -6.220  0.5149E+00  0.1852E+01
  -6.210  0.1879E+01  0.1871E+01
  -6.200  0.2277E+01  0.1894E+01
  -6.190  0.1422E+01  0.1908E+01
  -6.180  0.8715E+00  0.1917E+01
  -6.170  0.8552E+00  0.1925E+01
  -6.160  0.9550E+00  0.1935E+01
  -6.150  0.9798E-01  0.1936E+01
  -6.140  0.1132E+00  0.1937E+01
  -6.130  0.1437E+01  0.1951E+01
  -6.120  0.2425E+01  0.1976E+01
  -6.110  0.1053E+01  0.1986E+01
  -6.100  0.1495E+01  0.2001E+01
  -6.090  0.2597E+01  0.2027E+01
  -6.080  0.1540E+01  0.2042E+01
  -6.070  0.4202E+00  0.2047E+01
  -6.060 -0.9305E-01  0.2046E+01
  -6.050  0.5822E+00  0.2052E+01
  -6.040  0.1988E+01  0.2071E+01
  -6.030  0.1783E+01  0.2089E+01
  -6.020  0.1446E+00  0.2091E+01
  -6.010 -0.1253E+00  0.2089E+01
  -6.000  0.7656E+00  0.2097E+01
  -5.990  0.2148E+01  0.2119E+01
  -5.980  0.1668E+01  0.2135E+01
  -5.970  0.5498E+00  0.2141E+01
  -5.960  0.1026E+01  0.2151E+01
  -5.950  0.6922E+00  0.2158E+01
  -5.940  0.7380E+00  0.2165E+01
  -5.930  0.1097E+01  0.2176E+01
  -5.920  0.5299E+00  0.2182E+01
  -5.910  0.9875E+00  0.2191E+01
  -5.900  0.1082E+01  0.2202E+01
  -5.890  0.1577E+01  0.2218E+01
  -5.880  0.3162E+01  0.2250E+01
  -5.870  0.1814E+01  0.2268E+01
  -5.860 -0.1294E+00  0.2267E+01
  -5.850 -0.2168E+00  0.2264E+01
  -5.840  0.2387E+00  0.2267E+01
  -5.830  0.1058E+01  0.2277E+01
  -5.820  0.1356E+01  0.2291E+01
  -5.810  0.1153E+01  0.2302E+01
  -5.800  0.7221E+00  0.2310E+01
  -5.790 -0.2093E-01  0.2309E+01
  -5.780  0.3983E+00  0.2313E+01
  -5.770  0.1668E+01  0.2330E+01
  -5.760  0.2242E+01  0.2352E+01
  -5.750  0.2074E+01  0.2373E+01
  -5.740  0.3119E+01  0.2404E+01
  -5.730  0.4188E+01  0.2446E+01
  -5.720  0.2562E+01  0.2472E+01
  -5.710  0.1079E+01  0.2483E+01
  -5.700  0.3414E+00  0.2486E+01
  -5.690 -0.1701E+00  0.2484E+01
  -5.680  0.3174E-01  0.2485E+01
  -5.670  0.9463E+00  0.2494E+01
  -5.660  0.2795E+01  0.2522E+01
  -5.650  0.3148E+01  0.2554E+01
  -5.640  0.1798E+01  0.2572E+01
  -5.630  0.3726E+00  0.2575E+01
  -5.620  0.2563E+00  0.2578E+01
  -5.610  0.1143E+01  0.2589E+01
  -5.600  0.9881E+00  0.2599E+01
  -5.590  0.1513E+01  0.2614E+01
  -5.580  0.2465E+01  0.2639E+01
  -5.570  0.1832E+01  0.2657E+01
  -5.560  0.1631E+01  0.2674E+01
  -5.550  0.1277E+01  0.2686E+01
  -5.540  0.1132E+01  0.2698E+01
  -5.530  0.1511E+01  0.2713E+01
  -5.520  0.1388E+01  0.2727E+01
  -5.510  0.1146E+01  0.2738E+01
  -5.500  0.9633E+00  0.2748E+01
  -5.490  0.1423E+00  0.2749E+01
  -5.480  0.8683E-01  0.2750E+01
  -5.470  0.1186E+01  0.2762E+01
  -5.460  0.2142E+01  0.2783E+01
  -5.450  0.1315E+01  0.2797E+01
  -5.440  0.1690E+01  0.2813E+01
  -5.430  0.4398E+01  0.2857E+01
  -5.420  0.2860E+01  0.2886E+01
  -5.410 -0.2175E+00  0.2884E+01
  -5.400  0.1666E+00  0.2886E+01
  -5.390  0.1166E+01  0.2897E+01
  -5.380  0.6461E+00  0.2904E+01
  -5.370  0.2894E+00  0.2907E+01
  -5.360  0.1090E+01  0.2917E+01
  -5.350  0.8521E+00  0.2926E+01
  -5.340  0.8878E+00  0.2935E+01
  -5.330  0.3274E+01  0.2968E+01
  -5.320  0.4339E+01  0.3011E+01
  -5.310  0.3004E+01  0.3041E+01
  -5.300  0.1483E+01  0.3056E+01
  -5.290  0.2178E+00  0.3058E+01
  -5.280 -0.2094E+00  0.3056E+01
  -5.270  0.1420E+00  0.3057E+01
  -5.260  0.9891E+00  0.3067E+01
  -5.250  0.1594E+01  0.3083E+01
  -5.240  0.1320E+01  0.3096E+01
  -5.230  0.4872E+00  0.3101E+01
  -5.220 -0.1480E+00  0.3100E+01
  -5.210 -0.4945E-01  0.3099E+01
  -5.200  0.3092E+00  0.3102E+01
  -5.190  0.1117E+01  0.3114E+01
  -5.180  0.1542E+01  0.3129E+01
  -5.170  0.2700E+01  0.3156E+01
  -5.160  0.3163E+01  0.3188E+01
  -5.150  0.4359E+00  0.3192E+01
  -5.140 -0.3676E+00  0.3188E+01
  -5.130  0.3854E+00  0.3192E+01
  -5.120  0.1461E+01  0.3207E+01
  -5.110  0.1758E+01  0.3224E+01
  -5.100  0.8681E+00  0.3233E+01
  -5.090 -0.6840E-01  0.3232E+01
  -5.080 -0.3951E-01  0.3232E+01
  -5.070  0.6828E+00  0.3239E+01
  -5.060  0.1864E+01  0.3257E+01
  -5.050  0.1839E+01  0.3276E+01
  -5.040  0.1335E+01  0.3289E+01
  -5.030  0.2700E+01  0.3316E+01
  -5.020  0.3427E+01  0.3350E+01
  -5.010  0.3197E+01  0.3382E+01
  -5.000  0.3069E+01  0.3413E+01
  -4.990  0.3283E+01  0.3446E+01
  -4.980  0.5385E+01  0.3500E+01
  -4.970  0.7846E+01  0.3578E+01
  -4.960  0.6107E+01  0.3639E+01
  -4.950  0.2593E+01  0.3665E+01
  -4.940  0.2387E+01  0.3689E+01
  -4.930  0.3367E+01  0.3723E+01
  -4.920  0.3333E+01  0.3756E+01
  -4.910  0.3062E+01  0.3787E+01
  -4.900  0.3540E+01  0.3822E+01
  -4.890  0.2397E+01  0.3846E+01
  -4.880  0.1404E+01  0.3860E+01
  -4.870  0.2596E+01  0.3886E+01
  -4.860  0.3605E+01  0.3922E+01
  -4.850  0.3220E+01  0.3954E+01
  -4.840  0.1192E+01  0.3966E+01
  -4.830  0.9866E+00  0.3976E+01
  -4.820  0.1888E+01  0.3995E+01
  -4.810  0.2131E+01  0.4016E+01
  -4.800  0.2184E+01  0.4038E+01
  -4.790  0.3040E+01  0.4068E+01
  -4.780  0.3712E+01  0.4106E+01
  -4.770  0.1428E+01  0.4120E+01
  -4.760  0.6483E+00  0.4126E+01
  -4.750  0.1519E+01  0.4142E+01
  -4.740  0.3399E+01  0.4176E+01
  -4.730  0.4655E+01  0.4222E+01
  -4.720  0.2195E+01  0.4244E+01
  -4.710  0.1318E+01  0.4257E+01
  -4.700  0.1017E+01  0.4267E+01
  -4.690  0.1210E+01  0.4279E+01
  -4.680  0.3284E+01  0.4312E+01
  -4.670  0.3246E+01  0.4345E+01
  -4.660  0.2772E+01  0.4373E+01
  -4.650  0.2615E+01  0.4399E+01
  -4.640  0.1361E+01  0.4412E+01
  -4.630  0.2936E+01  0.4442E+01
  -4.620  0.3364E+01  0.4475E+01
  -4.610  0.2169E+01  0.4497E+01
  -4.600  0.1864E+01  0.4516E+01
  -4.590  0.3380E+01  0.4549E+01
  -4.580  0.4957E+01  0.4599E+01
  -4.570  0.2697E+01  0.4626E+01
  -4.560  0.1743E+01  0.4643E+01
  -4.550  0.2589E+01  0.4669E+01
  -4.540  0.4176E+01  0.4711E+01
  -4.530  0.5095E+01  0.4762E+01
  -4.520  0.5796E+01  0.4820E+01
  -4.510  0.6148E+01  0.4881E+01
  -4.500  0.8056E+01  0.4962E+01
  -4.490  0.1034E+02  0.5065E+01
  -4.480  0.8434E+01  0.5150E+01
  -4.470  0.7291E+01  0.5223E+01
  -4.460  0.1051E+02  0.5328E+01
  -4.450  0.1050E+02  0.5433E+01
  -4.440  0.6969E+01  0.5502E+01
  -4.430  0.6271E+01  0.5565E+01
  -4.420  0.7239E+01  0.5638E+01
  -4.410  0.5742E+01  0.5695E+01
  -4.400  0.2960E+01  0.5725E+01
  -4.390  0.2689E+01  0.5751E+01
  -4.380  0.3173E+01  0.5783E+01
  -4.370  0.3557E+01  0.5819E+01
  -4.360  0.4224E+01  0.5861E+01
  -4.350  0.5639E+01  0.5917E+01
  -4.340  0.6410E+01  0.5981E+01
  -4.330  0.2870E+01  0.6010E+01
  -4.320 -0.5433E+00  0.6005E+01
  -4.310 -0.4252E+00  0.6000E+01
  -4.300 -0.4761E-01  0.6000E+01
  -4.290 -0.1514E-02  0.6000E+01
  -4.280 -0.1516E-04  0.6000E+01
  -4.270 -0.4943E-07  0.6000E+01
  -4.260 -0.5335E-10  0.6000E+01
  -4.250 -0.1920E-13  0.6000E+01
  -4.240 -0.2316E-17  0.6000E+01
  -4.230 -0.9382E-22  0.6000E+01
  -4.220 -0.1280E-26  0.6000E+01
  -4.210 -0.5884E-32  0.6000E+01
  -4.200 -0.9129E-38  0.6000E+01
  -4.190 -0.4783E-44  0.6000E+01
  -4.180 -0.8469E-51  0.6000E+01
  -4.170 -0.5071E-58  0.6000E+01
  -4.160 -0.1027E-65  0.6000E+01
  -4.150 -0.7039E-74  0.6000E+01
  -4.140 -0.5019E-80  0.6000E+01
  -4.130 -0.5008E-80  0.6000E+01
  -4.120 -0.5013E-80  0.6000E+01
  -4.110 -0.5018E-80  0.6000E+01
  -4.100 -0.5023E-80  0.6000E+01
  -4.090 -0.5028E-80  0.6000E+01
  -4.080 -0.5033E-80  0.6000E+01
  -4.070 -0.5038E-80  0.6000E+01
  -4.060 -0.5043E-80  0.6000E+01
  -4.050 -0.5048E-80  0.6000E+01
  -4.040 -0.5053E-80  0.6000E+01
  -4.030 -0.5058E-80  0.6000E+01
  -4.020 -0.5063E-80  0.6000E+01
  -4.010 -0.5068E-80  0.6000E+01
  -4.000 -0.5073E-80  0.6000E+01
  -3.990 -0.5078E-80  0.6000E+01
  -3.980 -0.5083E-80  0.6000E+01
  -3.970 -0.5088E-80  0.6000E+01
  -3.960 -0.5093E-80  0.6000E+01
  -3.950 -0.5098E-80  0.6000E+01
  -3.940 -0.5103E-80  0.6000E+01
  -3.930 -0.5108E-80  0.6000E+01
  -3.920 -0.5113E-80  0.6000E+01
  -3.910 -0.5118E-80  0.6000E+01
  -3.900 -0.5123E-80  0.6000E+01
  -3.890 -0.5128E-80  0.6000E+01
  -3.880 -0.5133E-80  0.6000E+01
  -3.870 -0.5138E-80  0.6000E+01
  -3.860 -0.5143E-80  0.6000E+01
  -3.850 -0.5148E-80  0.6000E+01
  -3.840 -0.4971E-80  0.6000E+01
  -3.830  0.6737E-73  0.6000E+01
  -3.820  0.8455E-65  0.6000E+01
  -3.810  0.3591E-57  0.6000E+01
  -3.800  0.5158E-50  0.6000E+01
  -3.790  0.2505E-43  0.6000E+01
  -3.780  0.4112E-37  0.6000E+01
  -3.770  0.2280E-31  0.6000E+01
  -3.760  0.4266E-26  0.6000E+01
  -3.750  0.2693E-21  0.6000E+01
  -3.740  0.5729E-17  0.6000E+01
  -3.730  0.4105E-13  0.6000E+01
  -3.720  0.9909E-10  0.6000E+01
  -3.710  0.8063E-07  0.6000E+01
  -3.700  0.2218E-04  0.6000E+01
  -3.690  0.2073E-02  0.6000E+01
  -3.680  0.6636E-01  0.6001E+01
  -3.670  0.7327E+00  0.6008E+01
  -3.660  0.2770E+01  0.6036E+01
  -3.650  0.3594E+01  0.6072E+01
  -3.640  0.2390E+01  0.6096E+01
  -3.630  0.1729E+01  0.6113E+01
  -3.620  0.8755E+00  0.6122E+01
  -3.610  0.1685E+01  0.6138E+01
  -3.600  0.1623E+01  0.6155E+01
  -3.590  0.3803E+00  0.6158E+01
  -3.580  0.7651E+00  0.6166E+01
  -3.570  0.1738E+01  0.6184E+01
  -3.560  0.1390E+01  0.6197E+01
  -3.550  0.3039E+00  0.6200E+01
  -3.540  0.1166E+00  0.6202E+01
  -3.530  0.1105E+01  0.6213E+01
  -3.520  0.1661E+01  0.6229E+01
  -3.510  0.1219E+01  0.6241E+01
  -3.500  0.2512E+00  0.6244E+01
  -3.490 -0.1292E+00  0.6243E+01
  -3.480  0.3552E+00  0.6246E+01
  -3.470  0.1364E+01  0.6260E+01
  -3.460  0.1762E+01  0.6278E+01
  -3.450  0.9967E+00  0.6287E+01
  -3.440 -0.2262E-02  0.6287E+01
  -3.430 -0.1455E+00  0.6286E+01
  -3.420  0.3201E-01  0.6286E+01
  -3.410  0.5563E+00  0.6292E+01
  -3.400  0.1843E+01  0.6310E+01
  -3.390  0.1921E+01  0.6330E+01
  -3.380  0.3161E+00  0.6333E+01
  -3.370 -0.2352E+00  0.6330E+01
  -3.360 -0.6178E-01  0.6330E+01
  -3.350  0.4437E-02  0.6330E+01
  -3.340  0.1757E+00  0.6332E+01
  -3.330  0.1194E+01  0.6343E+01
  -3.320  0.2399E+01  0.6367E+01
  -3.310  0.1024E+01  0.6378E+01
  -3.300 -0.2658E+00  0.6375E+01
  -3.290 -0.1283E+00  0.6374E+01
  -3.280 -0.9475E-02  0.6374E+01
  -3.270  0.3271E-01  0.6374E+01
  -3.260  0.3510E+00  0.6377E+01
  -3.250  0.1164E+01  0.6389E+01
  -3.240  0.1344E+01  0.6403E+01
  -3.230  0.1148E+01  0.6414E+01
  -3.220  0.5700E+00  0.6420E+01
  -3.210 -0.1245E+00  0.6418E+01
  -3.200 -0.8166E-01  0.6418E+01
  -3.190  0.2642E-01  0.6418E+01
  -3.180  0.3566E+00  0.6422E+01
  -3.170  0.1115E+01  0.6433E+01
  -3.160  0.8596E+00  0.6441E+01
  -3.150  0.1926E-02  0.6441E+01
  -3.140  0.3417E+00  0.6445E+01
  -3.130  0.1165E+01  0.6456E+01
  -3.120  0.7169E+00  0.6464E+01
  -3.110 -0.9279E-01  0.6463E+01
  -3.100  0.5101E-01  0.6463E+01
  -3.090  0.7579E+00  0.6471E+01
  -3.080  0.1187E+01  0.6483E+01
  -3.070  0.2933E+00  0.6485E+01
  -3.060 -0.1518E+00  0.6484E+01
  -3.050 -0.3967E-01  0.6484E+01
  -3.040  0.4407E-01  0.6484E+01
  -3.030  0.4279E+00  0.6488E+01
  -3.020  0.1177E+01  0.6500E+01
  -3.010  0.9118E+00  0.6509E+01
  -3.000  0.7406E+00  0.6517E+01
  -2.990  0.1065E+01  0.6527E+01
  -2.980  0.2110E+00  0.6529E+01
  -2.970 -0.1491E+00  0.6528E+01
