Results for the lattice constant convegence in Ta2C

lattice constant (Angstrom)           total energy / Ry
5.8       -489.71763878
5.85       -489.73175265
5.9       -489.74257145
5.95       -489.75034475
6.0       -489.75530605
6.05       -489.75767362
6.1       -489.75765254
6.15       -489.75543370
6.2       -489.75119667
6.25       -489.74510774
6.3       -489.73732435
6.35       -489.72799233
6.4       -489.71724753
